### header ###
fiducial parameters:
Omega_m = 0.31
Omega_nu = 0
Omega_de = 0.69
Omega_k = 0
H_0 = 100
w_de = -1
zeff = 0
beta = 0
fgrowth = 0
b_1 = 2
gamma = 0.55
############################
logbin 1
mins 0.1
maxs 10000
s bins 500
############################
Nmock 3757351
normR 921996
############################
11 columns: s_central s_mean W0(s) W1(s) W2(s) W3(s) W4(s) W5(s) W6(s) W7(s) W8(s)
### header ###
0.101165 0.101134 629.64 0.0469041 4.10665 0.0495608 -737.027 -0.097266 121.058 -0.0137055 -286.918
0.103521 0.103935 243.121 0.015161 205.009 0.037871 -374.321 -0.0541394 140.71 0.0725336 -368.024
0.105932 0.106185 331.634 0.022512 260.419 0.0717014 -859.157 -0.111926 -69.9816 -0.0585708 310.144
0.1084 0.109308 215.08 0.0214256 -391.767 -0.0421443 168.659 0.00121848 211.163 0.0943327 -487.462
0.110925 0.111431 324.647 0.0311775 -244.803 0.00816788 -434.068 -0.101973 342.818 -0.0187315 347.405
0.113509 0.112938 500.448 0.0392844 196.993 0.0376718 -208.132 -0.11655 859.931 0.110761 205.562
0.116153 0.115001 118.888 0.000630271 557.231 0.00836355 854.898 0.0297606 930.33 0.065243 748.904
0.118858 0.118334 486.946 0.049906 -279.992 -0.0218761 -400.246 0.00903583 -397.676 -0.244448 1033.15
0.121627 0.121899 258.531 0.0188632 207.801 0.0550263 -621.822 -0.0133427 -701.994 -0.294796 1145.12
0.12446 0.124523 749.541 0.0644323 448.454 0.0701711 -408.863 -0.0231368 -441.007 0.0536892 -1033.34
0.127359 0.12822 331.17 0.0183049 702.146 0.0846493 28.0654 0.067636 -472.546 0.0278808 -757.884
0.130325 0.130866 326.061 0.0323486 -19.8144 0.0150308 -121.901 0.0646258 -854.368 -0.323281 832.903
0.133361 0.133075 494.907 0.045769 220.59 0.0374108 -24.4186 -0.0145554 310.586 0.440408 -2201.16
0.136467 0.136421 431.035 0.0518619 -248.545 0.00106651 -364.814 -0.0763438 -42.8866 -0.0401631 170.092
0.139646 0.13928 498.26 0.0618136 -303.597 -0.082262 530.305 0.0542078 386.544 -0.177044 1433.41
0.142899 0.143513 315.973 0.040808 -373.784 -0.0309092 -180.58 -0.0862594 345.866 0.0775313 112.718
0.146227 0.145815 361.091 0.0367936 106.153 0.0305181 -219.667 -0.0632995 218.695 0.00402055 256.24
0.149633 0.149337 274.355 0.034137 -184.288 -0.0778299 766.265 0.117443 198.93 0.0213465 234.942
0.153119 0.153212 488.894 0.052843 43.6563 -0.0172248 308.139 0.0480026 37.5481 0.0204408 -49.5213
0.156685 0.156756 329.678 0.0461782 -266.574 -0.0122165 -256.766 -0.074495 92.6304 -0.015487 190.281
0.160335 0.160816 596.973 0.0713135 -36.5124 0.00431293 -155.19 -0.271763 1849.06 0.366993 454.727
0.16407 0.16482 473.067 0.0678444 -278.746 -0.047524 -4.49154 0.0051999 133.268 -0.166047 731.826
0.167892 0.16787 301.661 0.0440739 -181.902 -0.0295353 -23.447 -0.0848463 581.259 0.237312 -388.913
0.171802 0.172375 337.268 0.0465341 -13.7833 -0.000772393 -84.2215 -0.0426965 99.8883 0.199155 -706.464
0.175804 0.175963 204.889 0.0196986 215.247 0.00855937 309.306 -0.00631207 491.73 0.0850936 203.154
0.179899 0.179822 344.543 0.0420897 189.145 0.0167784 125.061 -0.0235694 333.371 0.226313 -575.786
0.184089 0.184069 518.762 0.0715008 -90.5642 -0.0018038 -87.1513 0.0898762 -708.539 -0.376854 748.771
0.188377 0.188248 343.995 0.0458841 117.609 -0.0111183 367.579 0.145872 -375.954 -0.0092752 -522.913
0.192765 0.193283 505.911 0.0762716 -28.9945 0.0282709 -460.703 -0.0894986 -157.121 -0.00412109 -103.927
0.197255 0.197105 425.326 0.0665861 -107.163 -0.00667376 -108.623 -0.00746259 -155.239 0.0103739 -310.437
0.20185 0.201813 363.778 0.0559521 -23.4867 -0.0127745 158.971 0.0373725 -17.4575 0.0641946 -194.674
0.206552 0.206648 531.141 0.0902559 -133.225 -0.0176757 -58.7576 -0.138909 669.475 0.406408 -521.689
0.211363 0.211919 473.823 0.0790112 -213.455 -0.0400204 23.0141 -0.0445893 242.902 0.108907 -93.4798
0.216286 0.21623 469.016 0.0748153 -13.4623 0.00190536 -23.0138 -0.0351996 128.503 -0.000816348 152.017
0.221324 0.221267 437.481 0.0810652 -267.566 -0.0298163 -201.565 -0.127872 367.578 0.170781 -174.98
0.226479 0.226242 386.511 0.0603461 193.585 0.0675708 -179.054 0.0165695 -306.066 -0.179478 119.565
0.231755 0.232184 392.591 0.0815445 -335.973 -0.0779189 7.93518 0.0298264 -81.3854 -0.0911798 163.163
0.237153 0.237518 421.1 0.066379 253.255 0.0600801 -16.7135 0.0179743 -122.085 0.143571 -730.056
0.242677 0.24301 375.008 0.0707506 7.35006 0.00310894 -21.6821 0.0595146 -207.566 -0.149145 134.199
0.24833 0.248754 380.58 0.079469 -151.481 -0.045587 51.4851 0.0446149 -54.7331 -0.107891 188.628
0.254114 0.253655 285.6 0.0459552 223.771 0.0330125 144.682 0.0548589 -66.3477 0.0173622 -189.696
0.260033 0.260089 368.801 0.0703296 14.962 0.00776127 -51.4151 0.00260914 -64.6413 -0.063661 115.181
0.26609 0.266042 447.517 0.089069 4.53936 -0.0114557 80.2037 0.0847725 -235.976 -0.0920428 -100.861
0.272288 0.272469 390.249 0.0753696 129.647 0.0168535 93.0993 -0.0509652 359.271 0.171893 -38.9519
0.278631 0.278031 343.85 0.0669755 65.3803 0.0176779 2.89818 -0.00488525 27.5797 0.0469029 -90.9229
0.285121 0.285606 418.772 0.0923482 -37.5705 0.0239676 -231.979 -0.0840917 -34.4654 -0.0584772 121.548
0.291762 0.29194 439.603 0.0978874 0.34215 0.0131217 -75.1933 -0.0781456 214.924 0.14489 -93.0972
0.298558 0.299199 396.402 0.0971333 -153.615 -0.0636219 144.08 0.0361003 82.2331 0.147909 -325.737
0.305512 0.305733 462.164 0.109214 -42.1439 -0.0414488 228.341 0.107741 -71.1398 0.0150885 -130.05
0.312629 0.312909 436.525 0.0941742 168.052 0.0798524 -182.925 -0.0660099 2.4347 -0.0615569 132.191
0.319911 0.319865 346.7 0.0798941 63.1841 -0.000405616 136.219 -0.00745956 212.892 0.191874 -222.365
0.327362 0.32736 318.948 0.0804759 -41.6743 -0.0332552 141.81 0.0762039 -51.0734 0.0428855 -168.154
0.334988 0.335181 405.71 0.105216 -28.8755 -0.00103078 -63.6705 -0.0308432 48.3288 -0.0252055 106.317
0.342791 0.343018 368.993 0.0983372 -61.8506 0.00740847 -159.885 -0.113706 181.528 0.066698 80.0868
0.350775 0.350508 423.436 0.110361 13.6623 -0.00241527 14.3495 -0.0348045 139.192 0.0574775 45.7449
0.358946 0.35911 404.732 0.112065 -50.6475 -0.0301871 53.6601 -0.0288173 179.514 0.132704 -73.3958
0.367307 0.367635 370.451 0.103988 -31.2079 -0.0299808 87.9093 -0.0116027 164.396 0.0339724 128.787
0.375862 0.375927 344.806 0.0991557 -65.4241 -0.0207303 -13.1517 0.0529846 -184.402 -0.0718179 -54.5502
0.384617 0.384943 408.537 0.123817 -109.065 -0.0780163 185.435 0.0724524 81.4603 0.0417048 -16.6826
0.393576 0.393692 434.819 0.121984 119.374 0.00121499 186.266 0.188412 -248.905 -0.207792 80.3846
0.402744 0.403009 386.218 0.122631 -101.843 -0.0483689 66.6489 -0.00374391 114.774 0.121111 -65.0485
0.412125 0.412342 388.501 0.121501 -19.6969 -0.0218031 61.9194 0.0093857 79.7244 0.12681 -140.805
0.421724 0.421619 338.689 0.109882 -40.7193 -0.0296686 61.6233 0.0489032 -53.7853 -0.10265 124.571
0.431548 0.431389 397.633 0.121745 97.5909 0.0213677 70.4849 0.0232231 48.732 -0.00442492 92.0535
0.4416 0.441395 366.93 0.113646 98.6433 0.0663923 -127.186 -0.0471306 -52.2343 -0.0792285 68.9912
0.451886 0.451673 415.581 0.140095 29.6363 -0.00136482 37.5298 0.012311 49.4075 -0.000823128 60.1794
0.462412 0.462668 386.269 0.13248 15.1869 0.0116152 -25.5443 -0.0332232 47.1552 0.0329941 -6.30211
0.473183 0.472819 416.63 0.145366 26.5297 0.00455102 48.9728 -0.028681 98.9611 0.0583659 58.7892
0.484204 0.484119 395.018 0.144964 -29.3737 -0.0186229 17.9797 -0.00798811 47.3125 0.0883354 -90.712
0.495483 0.495444 371.974 0.142325 -36.8907 -0.0132602 -20.6566 0.00739437 -36.7039 -0.0496617 19.508
0.507024 0.506932 356.995 0.133573 16.3727 -0.00667484 58.8487 0.0256116 31.663 0.0539238 -49.6823
0.518834 0.518692 391.397 0.159219 -100.734 -0.0583342 53.9757 0.0682981 -59.8084 -0.0403886 -32.8864
0.53092 0.530928 396.933 0.158258 -5.03288 0.0299747 -113.641 -0.0793318 -2.13323 -0.0635391 112.154
0.543286 0.543085 389.947 0.159367 18.9894 -0.00227824 32.0676 0.0794113 -111.177 -0.102388 6.70249
0.555941 0.556245 386.303 0.163999 -35.4608 0.0129023 -98.3734 -0.107581 75.614 0.0238872 60.6652
0.568891 0.56918 408.079 0.173774 12.7458 -0.00918625 48.6475 0.0511397 -18.9787 -0.118257 126.754
0.582142 0.582319 404.745 0.178865 -29.6276 -0.0242112 53.7486 0.0781554 -101.005 -0.175273 119.32
0.595702 0.595935 394.698 0.182007 -53.4099 -0.0248743 -13.6825 0.036576 -93.544 -0.0921156 4.95631
0.609577 0.609523 384.918 0.17474 28.4928 0.0174258 -2.78129 -0.00853378 4.06756 0.113367 -134.863
0.623776 0.62385 382.688 0.173279 69.0314 0.0359089 18.7042 -0.0195888 56.9694 -0.00815052 111.878
0.638306 0.638387 405.679 0.201066 -52.3245 -0.0267527 -5.23492 -0.0590292 86.2155 0.124902 -32.964
0.653174 0.653108 387.228 0.191207 -10.3471 -0.020366 39.4588 0.0178961 29.5984 0.0383079 -8.00009
0.668388 0.668548 389.224 0.194218 26.8834 0.0141455 7.16461 -0.0576402 111.348 0.10308 27.4583
0.683957 0.68383 396.237 0.200361 37.341 0.0342007 -38.222 0.00326953 -60.2534 -0.113693 43.6737
0.699888 0.700008 396.028 0.207519 16.1439 0.0109843 2.2347 0.0348478 -56.7856 -0.181086 117.512
0.716191 0.716334 368.793 0.197499 14.7715 0.0135142 -8.12541 -0.027095 26.7771 0.0276013 2.59683
0.732873 0.732994 387.855 0.216478 -17.8924 -0.01173 -6.9397 0.0173716 -33.1519 -0.0707541 36.6223
0.749944 0.750218 377.565 0.213357 7.31329 0.0106413 -22.5989 -0.0346971 19.2432 0.082276 -63.595
0.767412 0.767457 391.991 0.227565 -3.68008 0.00299641 -18.2496 -0.0381194 22.1663 0.00603546 20.3542
0.785288 0.785411 391.931 0.232281 -4.12901 0.00837634 -35.4677 -0.0368693 7.80114 -0.048518 55.4681
0.803579 0.803733 371.466 0.220616 29.4253 0.0144126 14.8384 -0.00464895 26.0189 0.0386967 0.156421
0.822297 0.822578 387.105 0.238302 13.709 0.00994539 2.40476 0.0269836 -34.1711 -0.100015 46.99
0.841451 0.841325 393.44 0.248136 2.36534 -0.000646145 2.52485 -0.0648737 96.6842 0.0865579 39.8041
0.861051 0.861065 393.287 0.253483 7.91754 -0.00869016 36.9015 0.0335535 1.15321 0.0373278 -32.2761
0.881107 0.881116 380.502 0.255271 -17.2277 0.00318222 -37.9063 -0.0479858 -0.346434 -0.00444291 9.36974
0.901631 0.901701 388.515 0.263141 12.3685 0.012488 -18.7197 -0.0333856 26.3237 0.068517 -28.8933
0.922633 0.922778 380.741 0.266856 -11.8804 -0.00366998 -14.7773 -0.0588147 49.1791 0.081132 -16.6636
0.944123 0.94441 382.986 0.269498 26.2626 0.0412052 -38.1597 -0.0463428 5.08142 -0.0679761 59.0239
0.966115 0.966228 380.001 0.275809 7.22622 0.014661 -16.831 -0.0317964 13.4586 0.0690362 -38.1421
0.988619 0.988722 395.82 0.295909 -7.72333 -0.0256603 40.3465 0.0887806 -44.6166 -0.0939262 26.5571
1.01165 1.01165 388.635 0.296695 -7.82943 0.00442763 -24.0556 -0.0278173 -1.89367 -0.0161033 14.3366
1.03521 1.03524 385.483 0.300204 3.04243 0.0139986 -18.8017 -0.0315578 -1.34075 -0.0292426 21.0169
1.05932 1.05956 388.381 0.311314 -6.63971 -0.0134971 14.4122 0.0314664 -17.1057 0.0351146 -50.8051
1.084 1.08413 388.221 0.320199 -25.183 -0.0167407 -8.0734 -0.0178658 4.75249 0.0127326 -1.26455
1.10925 1.10925 380.341 0.317007 6.25534 0.000539845 8.48582 0.0360527 -24.983 -0.0745515 19.0018
1.13509 1.13525 384.399 0.324902 19.8369 0.0149921 11.7404 -0.0198247 33.5473 0.0403477 21.1953
1.16153 1.16167 383.136 0.332941 10.5876 0.0159579 -3.56548 0.0131325 -19.2947 -0.0565683 12.4409
1.18858 1.18866 380.624 0.340755 -5.2992 -0.00471595 1.7213 -0.00870305 9.60765 0.0360864 -13.1168
1.21627 1.21634 384.575 0.351888 -2.60033 0.00236836 -11.6314 -0.0405225 22.5813 0.0226675 16.9595
1.2446 1.2448 383.538 0.363862 -20.2581 -0.0383683 22.6508 0.0715843 -31.7657 -0.0812866 10.333
1.27359 1.27397 389.595 0.373137 4.06704 -0.00781802 19.0012 0.0125232 17.9378 0.0929993 -35.7958
1.30325 1.30332 382.112 0.374665 0.629469 0.000295914 2.63527 0.00352416 1.38533 -0.02745 19.1381
1.33361 1.33364 384.157 0.385064 2.57357 -0.0130466 25.847 0.00266824 31.732 0.0737196 0.491968
1.36467 1.36488 390.523 0.400357 4.62146 -0.00281645 9.61726 -0.00553983 21.5397 -0.0237708 36.3705
1.39646 1.3966 388.13 0.410109 -7.12821 -0.0228061 17.8288 0.0411777 -7.16761 0.00452517 -15.7682
1.42899 1.42915 379.098 0.405451 11.5339 0.0275847 -21.1816 -0.0133587 -19.3341 0.00636166 -28.4852
1.46227 1.46256 382.052 0.425795 -22.2901 -0.0327953 5.52697 0.0195388 -7.06831 -0.000473751 -8.97506
1.49633 1.4963 377.753 0.423449 15.9041 0.018415 3.08563 -0.0224421 18.9767 0.0265773 11.0111
1.53119 1.53136 382.134 0.438971 4.58262 0.00341615 3.95399 0.00602649 1.6778 0.0161471 -3.98075
1.56685 1.56702 375.801 0.443024 0.811596 0.0057178 -7.21421 -0.0129903 0.190446 0.00674261 -2.39514
1.60335 1.6036 373.326 0.448979 5.45064 0.00136106 10.7312 -0.0188377 24.6106 0.0709664 3.31683
1.6407 1.64089 387.906 0.47782 4.89913 0.00598475 -1.59057 -0.00430388 1.0522 0.000538167 2.31479
1.67892 1.67907 380.154 0.482674 -7.96122 -0.00472257 -5.21233 0.00674967 -15.9058 -0.0163409 -10.6228
1.71802 1.71803 383.88 0.498328 -6.41369 -0.0182224 8.27002 -0.025216 28.005 0.102558 -10.3553
1.75804 1.75821 383.849 0.509295 -2.13311 -0.00719563 1.05353 -0.025402 21.4574 0.0414585 5.28102
1.79899 1.79905 384.698 0.520809 0.924307 -0.0245495 27.5422 0.0479941 7.94016 0.0456147 -9.17376
1.84089 1.84108 384.631 0.534356 -4.10838 -0.0149258 7.24495 0.00503284 12.55 0.0579358 -11.1932
1.88377 1.88389 379.004 0.537274 3.10942 0.0016051 4.72991 0.0137719 -3.96812 -0.0139295 0.827195
1.92765 1.92771 382.763 0.55446 6.41019 0.00390046 8.35037 0.0274679 -4.62836 -0.0370019 10.0531
1.97255 1.97271 380.818 0.568374 -9.34703 -0.0346155 18.3314 0.0718616 -15.6909 -0.0243669 -9.85373
2.0185 2.01866 381.958 0.578928 6.39024 -0.00433206 14.9689 0.0320227 2.47143 -0.00133093 4.50686
2.06552 2.06571 376.764 0.585672 0.662054 0.00635263 -6.2248 0.000188174 -6.90656 -0.0433399 5.26687
2.11363 2.11391 378.669 0.601958 2.02442 -0.00177517 5.36467 0.0137638 1.426 -0.0393419 17.5357
2.16286 2.16296 375.533 0.613082 -5.08331 -0.00131321 -8.48144 -0.0503814 15.5354 0.0339151 6.36742
2.21324 2.21344 385.154 0.639167 8.9274 0.0143423 2.5712 -0.00362647 5.18135 0.000716559 6.21067
2.26479 2.26504 380.811 0.650819 -2.86246 -0.000331676 -3.09071 -0.0161086 4.06516 0.0654282 -17.5095
2.31755 2.31766 382.86 0.667482 2.76783 0.00139346 2.70681 -0.00575945 6.55901 -0.0482839 24.3081
2.37153 2.37168 380.7 0.676771 8.48271 0.017423 0.687688 -0.00336763 2.15504 0.0033656 0.957297
2.42677 2.42695 380.352 0.694188 2.80164 0.0154702 -8.41474 -0.0259971 0.319079 -0.0166021 6.15628
2.4833 2.48352 378.957 0.708681 -0.150894 -0.00855312 6.47893 0.0384201 -6.63414 -0.00993723 -7.41263
2.54114 2.54149 381.748 0.728676 4.85518 0.00610693 3.31551 0.00607432 1.83383 -0.016049 7.67437
2.60033 2.60058 378.759 0.740869 3.01177 0.00464335 0.769264 -0.00351951 3.33914 0.0276736 -5.57815
2.6609 2.66119 379.561 0.761263 -1.15467 -0.0089047 3.85592 0.00597131 4.11812 -0.00283902 5.95505
2.72288 2.72314 381.315 0.781342 0.489416 0.000143994 1.25737 0.0253717 -7.81895 -0.0268817 -2.25483
2.78631 2.7865 379.359 0.790416 13.2195 0.0235119 8.60893 0.0164821 4.35781 9.0627e-06 3.75334
2.85121 2.85147 378.529 0.811872 1.73981 -0.00631551 6.90429 0.047238 -6.9956 -0.0744152 10.3344
2.91762 2.91796 377.568 0.829056 0.785173 0.000957488 1.7622 -0.00649384 5.49578 0.0160236 3.30449
2.98558 2.98602 378.819 0.849901 3.47851 0.00570523 1.38248 0.0119339 -2.03814 -0.0149693 2.42385
3.05512 3.05539 378.371 0.866351 8.1325 0.025203 -1.65151 -0.0403205 13.0123 0.0502042 6.28421
3.12629 3.12659 379.934 0.891994 5.13837 0.0130948 1.02049 0.00560815 -1.17975 0.0498646 -11.3305
3.19911 3.19936 378.134 0.909515 1.65227 0.00759826 -1.31131 -0.0129105 1.71208 -0.00144155 3.65764
3.27362 3.27384 378.445 0.928093 9.40625 0.0242632 2.28504 0.0231629 -5.06406 -0.000333874 -5.11667
3.34988 3.35023 377.383 0.948364 6.54669 0.015607 3.13612 0.00695002 1.77604 0.00592158 1.18518
3.42791 3.42817 379.421 0.976379 5.43643 0.0184318 -1.18103 -0.0137181 3.19602 -0.0186806 8.1858
3.50775 3.50814 377.334 0.99476 2.89954 0.00737133 1.49044 0.00428836 0.688529 0.0314792 -7.01895
3.58946 3.58983 376.531 1.01556 3.71729 0.0056043 3.66975 -0.00220406 6.38512 -0.0144969 11.797
3.67307 3.67346 377.762 1.04005 7.73013 0.0194003 3.39645 0.018164 -0.391603 -0.00908586 2.53258
3.75862 3.75888 377.281 1.0671 0.730588 0.00942627 -3.27622 -0.0164344 -0.383298 -0.0373959 7.64076
3.84617 3.84651 376.508 1.08641 6.27406 0.0179167 2.06047 0.00994232 1.80361 0.00143634 1.28798
3.93576 3.93619 376.091 1.11129 5.75687 0.0172646 1.54207 0.0170512 -2.15121 0.0248912 -8.23117
4.02744 4.02781 377.608 1.14446 1.36904 0.000841653 2.35856 0.0157606 -1.2785 -0.0271853 4.16661
4.12125 4.12158 376.901 1.16782 1.62588 -0.0028118 5.01871 0.037703 -3.50608 -0.0143031 -1.44912
4.21724 4.21764 374.531 1.18542 6.67611 0.0281634 -1.0922 -0.018725 3.15784 0.0358932 -2.68672
4.31548 4.31585 376.261 1.22049 3.076 0.00736211 2.85716 -0.0136022 7.47528 0.0469028 0.64781
4.416 4.4163 376.399 1.24939 2.92172 0.0147336 -1.44421 -0.0148637 1.77357 0.00644673 1.58167
4.51886 4.51927 374.765 1.27301 3.40586 -0.000214795 6.59693 0.0193181 4.63564 0.0353204 -0.292773
4.62412 4.62455 374.446 1.30379 -0.186106 -0.00113022 0.0401149 0.00662763 -1.03828 -0.0234166 1.46105
4.73183 4.73213 374.323 1.33141 3.49825 0.00473454 4.08668 0.0297077 -1.13863 -0.0292667 3.30708
4.84204 4.84248 374.537 1.36202 5.26433 0.0104089 5.43547 0.0200508 3.12354 0.028243 -0.607064
4.95483 4.9552 373.926 1.39137 4.63811 0.00645614 5.74165 0.0414165 -1.09922 -0.0266719 3.07151
5.07024 5.07069 373.694 1.42576 2.05653 0.000319384 2.89185 0.0306908 -1.87317 -0.0189477 0.291923
5.18834 5.18889 373.207 1.45369 5.1631 0.0209261 1.39561 0.00791964 -0.0544446 -0.0066595 1.10194
5.3092 5.30968 374.262 1.49475 2.45723 0.00695148 1.79765 0.0251348 -2.81951 -0.0602165 5.20472
5.43286 5.43333 372.887 1.52128 4.75435 0.0175647 2.46826 0.0227784 -1.29547 -0.0228146 1.10709
5.55941 5.55991 372.054 1.55581 2.0767 -0.000109418 4.00274 0.012633 3.05498 0.0222959 0.889892
5.68891 5.68942 372.496 1.58967 6.50738 0.0234827 3.63242 0.00526184 3.81671 0.0124015 4.06443
5.82142 5.82196 372.691 1.62951 4.80694 0.0205383 1.46282 0.000709159 2.21456 0.0272894 -0.6719
5.95702 5.95753 373.078 1.671 2.42665 0.00562051 2.43864 0.013933 0.8164 0.00599596 0.519201
6.09577 6.09635 371.74 1.70236 4.86918 0.0171591 3.13169 0.0323521 -1.90097 -0.00809626 -1.28127
6.23776 6.23825 371.924 1.74494 2.74196 0.00665752 2.64583 0.0177653 0.326079 -0.0089497 2.05155
6.38306 6.38364 371.855 1.78286 4.9769 0.0169936 3.91238 0.0285909 0.641566 0.00681447 0.0501416
6.53174 6.53222 371.878 1.82661 2.24098 -0.00112194 4.45026 0.0389796 -0.423211 -0.0063796 0.622998
6.68388 6.68447 371.1 1.86565 2.33864 -0.00132648 4.66463 0.0203995 3.11216 0.0446175 -1.31209
6.83957 6.84006 370.873 1.90681 3.1622 0.00543235 4.14052 0.0277528 1.48112 -0.00565595 2.62979
6.99888 6.99951 370.956 1.95277 2.51722 -0.00172486 5.04631 0.0341771 1.33471 0.00313001 1.73311
7.16191 7.16257 370.479 1.99573 2.06652 -0.00802079 6.32304 0.0425213 1.75717 0.0142632 1.2836
7.32873 7.32935 370.614 2.04202 3.08613 0.010108 2.6234 0.0213513 0.480354 -0.0227408 3.29838
7.49944 7.50006 370.36 2.0896 1.48287 -0.0157248 7.17551 0.0576081 1.53585 0.0276565 -0.691315
7.67412 7.67479 370.083 2.13475 3.5776 0.00648638 4.85439 0.0304078 2.40082 0.0193527 1.13953
7.85288 7.85354 369.661 2.18229 3.59875 0.0126531 3.34477 0.0207799 1.69884 0.00313476 1.93212
8.03579 8.03649 370.015 2.23727 1.75484 0.000301675 3.31827 0.0136967 2.56272 0.0152055 2.45597
8.22297 8.22367 369.736 2.28681 2.74731 -0.00116099 5.22731 0.0303948 2.78379 0.0229335 1.89921
8.41451 8.4153 369.219 2.33811 1.43329 -0.00619872 3.94976 0.0260167 2.40968 0.0264002 0.643295
8.61051 8.61129 368.922 2.39079 1.18852 -0.00742209 4.21318 0.022548 2.63626 0.0390311 0.346967
8.81107 8.8119 369.507 2.44978 1.85757 -0.0068215 4.85443 0.0424707 1.37937 0.0218589 -0.121189
9.01631 9.01707 368.261 2.49979 0.681323 -0.0120368 4.00257 0.0311249 1.75026 0.00205957 2.01513
9.22633 9.2271 368.52 2.55942 0.99292 -0.0093168 3.82018 0.0257131 2.37064 -0.00777001 3.70482
9.44123 9.44213 368.602 2.61973 0.715608 -0.0118718 3.97224 0.0361443 1.25335 -0.0170814 3.19455
